row_id,energy
94993,2025.7193702656823
94994,1950.253364645646
94995,1895.146912661684
94996,1867.0746322072132
94997,1871.1932501660065
94998,1910.9973945614279
94999,1983.0712934001676
95000,2072.9633904099924
95001,2158.8931894219822
95002,2222.701009763518
95003,2259.6392276366346
95004,2278.519435365924
95005,2292.075361791304
95006,2306.3083304297247
95007,2318.2798932012765
95008,2323.4252103165863
95009,2324.076984730948
95010,2329.730811471098
95011,2347.8875554168917
95012,2374.0178867379423
95013,2390.788600501194
95014,2378.4966308043972
95015,2328.470452617571
95016,2248.6555252224657
95017,2157.8454109601253
95018,2074.8317998717166
95019,2011.8253783261032
95020,1975.5707461998734
95021,1971.2951609057802
95022,2002.563651939064
95023,2066.0300537667845
95024,2147.310974379808
95025,2224.692018088323
95026,2280.076951416483
95027,2308.7783931251015
95028,2319.6644657957504
95029,2325.5212572533133
95030,2332.3978728253887
95031,2337.398719955498
95032,2335.996598770617
95033,2330.556409307418
95034,2330.600337214504
95035,2343.650132287846
95036,2365.1916090321674
95037,2377.9009949945817
95038,2362.0790357347346
95039,2309.0525473508665
95040,2226.7600675756626
95041,2133.983235595715
95042,2049.497126946456
95043,1985.4914770506646
95044,1948.6859926547206
95045,1944.2795239601905
95046,1975.8056352441065
95047,2039.8841156010421
95048,2122.095440837102
95049,2200.687498654901
95050,2257.525259566646
95051,2287.881968203793
95052,2300.5862862379886
95053,2308.385229208708
95054,2317.2896725664345
95055,2324.3670631376067
95056,2325.0549047249183
95057,2321.6848241575767
95058,2323.7480757664334
95059,2338.7380953855727
95060,2362.1152304388247
95061,2376.533269878277
95062,2362.2736815419444
95063,2310.6472472182613
95064,2229.579746507957
95065,2137.843320336152
95066,2054.206741982014
95067,1990.856531059237
95068,1954.5121125047058
95069,1950.374796517426
95070,1981.9831209444508
95071,2045.9641019782766
95072,2127.9074087457575
95073,2206.0717788803513
95074,2262.334362660835
95075,2291.9815758575155
95076,2303.8558978560377
95077,2310.71846304237
95078,2318.594226182004
95079,2324.5643434133835
95080,2324.079342790281
95081,2319.482895636279
95082,2320.277051317634
95083,2333.964550768663
95084,2356.013349137767
95085,2369.0829746003537
95086,2353.4586336635007
95087,2300.4527554129395
95088,2217.9906273458782
95089,2124.8417545651464
95090,2039.770170463406
95091,1974.9556339505837
95092,1937.1089142436645
95093,1931.4209374970073
95094,1961.4183344703533
95095,2023.7149322317894
95096,2103.886202062216
95097,2180.175976708033
95098,2234.4461202261336
95099,2261.9677257086832
95100,2271.568272496516
95101,2275.994585360764
95102,2281.2583709227797
95103,2284.428967243185
95104,2280.9468748067725
95105,2273.1478745129048
95106,2270.528589724059
95107,2280.589102361501
95108,2298.7977483330665
95109,2307.8177145794175
95110,2287.9413437428566
95111,2230.491835026064
95112,2143.408990539359
95113,2045.480636156808
95114,1955.4929427929058
95115,1885.651581712749
95116,1842.696914080529
95117,1831.8529887795835
95118,1856.6828884132278
95119,1913.8399676773533
95120,1988.9419982732918
95121,2060.277536162081
95122,2109.755197706134
95123,2132.6944239107643
95124,2137.9721688651225
95125,2138.3853598813384
95126,2139.9959100873584
95127,2139.9229252721666
95128,2133.655679429454
95129,2123.577171071909
95130,2119.229124006964
95131,2128.154049303683
95132,2145.859500480309
95133,2155.044150892613
95134,2136.031605837019
95135,2080.171644241549
95136,1995.4255452113657
95137,1900.5971340210353
95138,1814.482778648471
95139,1749.2922749907812
95140,1711.7638249603938
95141,1707.1128849726801
95142,1738.8874272683474
95143,1803.7191602824296
95144,1887.1977234371077
95145,1967.5771725023567
95146,2026.7254417563256
95147,2059.9153610133244
95148,2075.9716616170526
95149,2087.633816237289
95150,2100.901489796634
95151,2112.8272391710293
95152,2118.8300313360005
95153,2121.219386623873
95154,2129.461004867477
95155,2151.01948475494
95156,2181.323261588396
95157,2202.9913853306775
95158,2196.2680440564336
95159,2152.4245201451836
95160,2079.345226894768
95161,1995.7594525534216
95162,1920.3920353769963
95163,1865.3849005849079
95164,1837.4126563971377
95165,1841.6320199944062
95166,1881.537609668818
95167,1953.7136436693615
95168,2043.7085559374011
95169,2129.741840490587
95170,2193.6538068185914
95171,2230.696821258931
95172,2249.6824662460995
95173,2263.3444607071997
95174,2277.684118220504
95175,2289.7629807449593
95176,2295.0161985064183
95177,2295.77646445385
95178,2301.539363585901
95179,2319.805750732149
95180,2346.0462859919867
95181,2362.927754341101
95182,2350.7470797685587
95183,2300.8327271176063
95184,2221.1301455112293
95185,2130.4328871363846
95186,2047.5326318473246
95187,1984.6400558132418
95188,1948.4997486933253
95189,1944.3389576692095
95190,1975.7227019894995
95191,2039.304805858189
95192,2120.701866990722
95193,2198.1994794078723
95194,2253.7013993322767
95195,2282.5202352082392
95196,2293.524099291743
95197,2299.4990690699806
95198,2306.494239521435
95199,2311.6140077307596
95200,2310.331163456497
95201,2305.010596357902
95202,2305.1744816981577
95203,2318.3445588774357
95204,2340.006632000716
95205,2352.83691820626
95206,2337.136152639055
95207,2284.231140977217
95208,2202.0604105333277
95209,2109.405590049078
95210,2025.0417446403148
95211,1961.1585992869782
95212,1924.4758502976429
95213,1920.192337426004
95214,1951.8416145085341
95215,2016.0434601923214
95216,2098.3783398331407
95217,2177.0941306997556
95218,2234.055792844485
95219,2264.536560458097
95220,2277.3650847684175
95221,2285.2883708727645
95222,2294.317283781762
95223,2301.5192598874746
95224,2302.3317925593956
95225,2299.0864981983814
95226,2301.2746207125742
95227,2316.389585518152
95228,2339.8917296270283
95229,2354.434831585118
95230,2340.3003488332815
95231,2288.7990527692577
95232,2207.8567126100165
95233,2116.2454589073727
95234,2032.7340545757577
95235,1969.5090088741463
95236,1933.2897363936484
95237,1929.277537000253
95238,1961.0109382192504
95239,2025.1169459312594
95240,2107.1852189656306
95241,2185.474484666404
95242,2241.861883054343
95243,2271.63381962971
95244,2283.6327635385237
95245,2290.619838940224
95246,2298.619990388117
95247,2304.7143638249386
95248,2304.3534771256586
95249,2299.880991452476
95250,2300.7989460285316
95251,2314.6100716612123
95252,2336.78231339324
95253,2349.9751893131647
95254,2334.4738958605712
95255,2281.5908520744706
95256,2199.251335426664
95257,2106.224841015727
95258,2021.2753922516697
95259,1956.5827380843518
95260,1918.8576377953216
95261,1913.2910076251121
95262,1943.4094684444535
95263,2005.8268374564097
95264,2086.1185761037336
95265,2162.5285073176024
95266,2216.918485368255
95267,2244.5595935866077
95268,2254.2793015795446
95269,2258.824424411741
95270,2264.206659026246
95271,2267.495333833489
95272,2264.130939699185
95273,2256.4492479305923
95274,2253.9468723294776
95275,2264.1238852879724
95276,2282.4486132131465
95277,2291.5842335774714
95278,2271.8230795895142
95279,2214.4883410483126
95280,2127.519810693816
95281,2029.7053050680377
95282,1939.8309857684205
95283,1870.102514806488
95284,1827.2602441078927
95285,1816.5282133582623
95286,1841.4694959990688
95287,1898.7374375990566
95288,1973.9498007710347
95289,2045.3951324237898
95290,2094.98203990629
95291,2118.0299552478314
95292,2123.4158235987766
95293,2123.936563374136
95294,2125.654078842127
95295,2125.687466972962
95296,2119.525992981195
95297,2109.5526466420733
95298,2105.309143066949
95299,2114.337984668678
95300,2132.146716353397
95301,2141.4340029070822
95302,2122.523441098388
95303,2066.764801371684
95304,1982.1193543926565
95305,1887.3909170399995
95306,1801.3758489403351
95307,1736.283937684472
95308,1698.8533769259714
95309,1694.2996148649381
95310,1726.1706155716965
95311,1791.0980793668573
95312,1874.6716375916967
95313,1955.1453379912755
95314,2014.3871068629505
95315,2047.6697660994093
95316,2063.8180391538767
95317,2075.571390866594
95318,2088.929478376745
95319,2100.944850827905
95320,2107.0364675132923
95321,2109.513841131931
95322,2117.8426639368877
95323,2139.487527085764
95324,2169.8768584030686
95325,2191.6297004250914
95326,2184.9902338546494
95327,2141.2297337506725
95328,2068.23260614327
95329,1984.7281320675615
95330,1909.4411426198617
95331,1854.5135559144942
95332,1826.6199731199044
95333,1830.9171044215059
95334,1870.8995611720047
95335,1943.1515547338965
95336,2033.2215122204184
95337,2119.328920876879
95338,2183.3140834770406
95339,2220.4293596997004
95340,2239.4863253771637
95341,2253.2186928937895
95342,2267.6277693406114
95343,2279.7750902489206
95344,2285.095799475506
95345,2285.9225836584274
95346,2291.7510215459724
95347,2310.0819617724173
95348,2336.386058310394
95349,2353.330090059335
95350,2341.210974997196
95351,2291.3571720158384
95352,2211.7141243482274
95353,2121.0753783527775
95354,2038.2326081179924
95355,1975.3964840960966
95356,1939.311590314004
95357,1935.205168367053
95358,1966.6422319842166
95359,2030.2765999126648
95360,2111.7248644740325
95361,2189.2726143593195
95362,2244.823600522013
95363,2273.6904262052267
95364,2284.741198524852
95365,2290.761989892863
95366,2297.8018902769427
95367,2302.965291815295
95368,2301.724979386476
95369,2296.4458378328973
95370,2296.6500376662348
95371,2309.859313603049
95372,2331.5594651281967
95373,2344.4267048264746
95374,2328.7617633546993
95375,2275.8914419719463
95376,2193.7542636354974
95377,2101.131852799404
95378,2016.7992703591913
95379,1952.9462371412592
95380,1916.292445368011
95381,1912.0367307736826
95382,1943.712643245207
95383,2007.9399575423336
95384,2090.2991352162508
95385,2169.038049777632
95386,2226.0216576042685
95387,2256.523189275641
95388,2269.3712924812157
95389,2277.3129688425015
95390,2286.359079968378
95391,2293.5770589144877
95392,2294.404395785622
95393,2291.1727037866253
95394,2293.373223699621
95395,2308.499377882283
95396,2332.0115003598225
95397,2346.56336676154
95398,2332.436431679761
95399,2280.9414637351256
95400,2200.0042294374894
95401,2108.3968567018187
95402,2024.8881058767067
95403,1961.664483723088
95404,1925.4454024083811
95405,1921.4321594430915
95406,1953.163280068283
95407,2017.2657679514266
95408,2099.3292797794747
95409,2177.612540825953
95410,2233.9926891098858
95411,2263.756128202316
95412,2275.745325392582
95413,2282.7214030534415
95414,2290.7093040216732
95415,2296.790172596
95416,2296.414525079474
95417,2291.9260211325145
95418,2292.8266985475166
95419,2306.619286775121
95420,2328.771729569494
95421,2341.9435438070777
95422,2326.419924780051
95423,2273.513290458011
95424,2191.1489173115338
95425,2098.0962995104155
95426,2013.119459607872
95427,1948.398145768444
95428,1910.6431165596919
95429,1905.0452875800418
95430,1935.1312791289668
95431,1997.514907912896
95432,2077.771634945351
95433,2154.1452828025517
95434,2208.497705471063
95435,2236.0999860693883
95436,2245.77959406318
95437,2250.283344447991
95438,2255.622934169248
95439,2258.867691711663
95440,2255.4581080837534
95441,2247.7299548101882
95442,2245.179845980098
95443,2255.3078543450583
95444,2273.5823067408737
95445,2282.6663811430685
95446,2262.852411329247
95447,2205.4635877437636
95448,2118.4397038399547
95449,2020.5685769451807
95450,1930.6363695122893
95451,1860.8487444778416
95452,1817.9460547650788
95453,1807.1523411267126
95454,1832.0306781420904
95455,1889.2344125875156
95456,1964.3813083493264
95457,2035.759913698741
95458,2085.2788373880903
95459,2108.257512939047
95460,2113.572887061366
95461,2114.021879795948
95462,2115.666397107994
95463,2115.6255377334983
95464,2109.388568723553
95465,2099.3384817569554
95466,2095.016993917579
95467,2103.9666096621727
95468,2121.6948760069013
95469,2130.900459916895
95470,2111.906960408647
95471,2056.064150242227
95472,1971.3333024679282
95473,1876.5182364156606
95474,1790.4153142318864
95475,1725.2343260943485
95476,1687.7134683110662
95477,1683.06819180361
95478,1714.8464634302836
95479,1779.6799863684246
95480,1863.1583948804712
95481,1943.5357396998377
95482,2002.6799501787461
95483,2035.8638513310111
95484,2051.912169796092
95485,2063.564373666276
95486,2076.8201233995555
95487,2088.731971521793
95488,2094.718880773114
95489,2097.0903673655
95490,2105.3121271308696
95491,2126.848754866841
95492,2157.1286821033736
95493,2178.7709551472867
95494,2172.019758534004
95495,2128.146371219116
95496,2055.035203192964
95497,1971.415539512745
95498,1896.0122153604375
95499,1840.967152998412
95500,1812.9549578042224
95501,1817.1323442356925
95502,1856.993927978735
95503,1929.1239247906815
95504,2019.0707662407428
95505,2105.0539440912735
95506,2168.913765693282
95507,2205.902595363034
95508,2224.8320136313387
95509,2238.435737639432
95510,2252.7150792952766
95511,2264.731579006215
95512,2269.920385564307
95513,2270.6141906011135
95514,2276.308577914289
95515,2294.504401253464
95516,2320.6723197543984
95517,2337.479117542448
95518,2325.22171787954
95519,2275.2285849901623
95520,2195.445167508963
95521,2104.6650172425816
95522,2021.6798137877997
95523,1958.7002331590302
95524,1922.4708650009077
95525,1918.2189565812412
95526,1949.5095273555303
95527,2012.9964018535873
95528,2094.2961782314
95529,2171.694451067666
95530,2227.0949772589106
95531,2255.8103660425536
95532,2266.708730581511
95533,2272.5761493862947
95534,2279.4617185764578
95535,2284.469836492706
95536,2283.0732942657764
95537,2277.6369830429035
95538,2277.683079690406
95539,2290.733325329032
95540,2312.2735258974353
95541,2324.979900483582
95542,2309.1531862977695
95543,2256.1201911979574
95544,2173.819444790939
95545,2081.032578227396
95546,1996.5346591466975
95547,1932.5154151691352
95548,1895.6945453451917
95549,1891.2708923025011
95550,1922.7780128533864
95551,1986.8356887329453
95552,2069.02438851231
95553,2147.591992767215
95554,2204.403464983363
95555,2234.732042893061
95556,2247.4063813824823
95557,2255.173489311933
95558,2264.044235571935
95559,2271.086060542028
95560,2271.7364616927853
95561,2268.327059636946
95562,2270.3491026031647
95563,2285.2960204394703
95564,2308.62815469927
95565,2322.9992885803704
95566,2308.690884282943
95567,2257.0137180744496
95568,2175.893564150406
95569,2084.1025581489134
95570,2000.4094681784063
95571,1937.000808799341
95572,1900.5960000134821
95573,1896.3963472022015
95574,1927.94038351305
95575,1991.8551205570352
95576,2073.73022299788
95577,2151.8244241201724
95578,2208.014869990149
95579,2237.5879722583586
95580,2249.386206327099
95581,2256.1707027141697
95582,2263.9664124353058
95583,2269.8544879991387
95584,2269.28545394919
95585,2264.602978218662
95586,2265.309106902883
95587,2278.9065777841083
95588,2300.8633429829874
95589,2313.8389277628517
95590,2298.1185358391504
95591,2245.0145936326417
95592,2162.4523860786626
95593,2069.201415862985
95594,1984.0257140652911
95595,1919.1050374071956
95596,1881.1501530380824
95597,1875.3519851654253
95598,1905.2371627227606
95599,1967.4195110725123
95600,2047.4744999106783
95601,2123.6459605189584
95602,2177.7957556128185
95603,2205.1949770605656
95604,2214.671103102345
95605,2218.9709575280663
95606,2224.1062460991834
95607,2227.1463061369923
95608,2223.5316375075454
95609,2215.598020612644
95610,2212.84207843681
95611,2222.7638926463997
95612,2240.8317990113314
95613,2249.708984457955
95614,2229.6877917316724
95615,2172.0914202625036
95616,2084.8596725111065
95617,1986.780374806563
95618,1896.6396986500088
95619,1826.6433160219863
95620,1783.5315889092685
95621,1772.5285671359902
95622,1797.1973343757877
95623,1854.1912465077794
95624,1929.1280765329739
95625,2000.2963818496316
95626,2049.604780349549
95627,2072.3727147047125
95628,2077.477140785234
95629,2077.7149878032606
95630,2079.1481709035006
95631,2078.895798012778
95632,2072.4471453790266
95633,2062.185213887701
95634,2057.651729836666
95635,2066.3892069035546
95636,2083.905201332109
95637,2092.898389320958
95638,2073.692379126369
95639,2017.6369527535674
95640,1932.6933925012172
95641,1837.6655269535624
95642,1751.3497275143097
95643,1685.9557936221345
95644,1648.2219308470007
95645,1643.3635993769522
95646,1674.9287753382787
95647,1739.5491711755044
95648,1822.8144304209839
95649,1902.97861307341
95650,1961.909657768601
95651,1994.8803987741833
95652,2010.7155720028425
95653,2022.1546548130063
95654,2035.1973169261485
95655,2046.8961201294496
95656,2052.670036421187
95657,2054.828591268083
95658,2062.837489752858
95659,2084.161335918133
95660,2114.2285705344475
95661,2135.6582491478243
95662,2128.694565518389
95663,2084.608807826335
95664,2011.2853952782377
95665,1927.453622139918
95666,1851.838332793459
95667,1796.5814586930796
95668,1768.3576144007552
95669,1772.323523547636
95670,1811.973810983283
95671,1883.892701619139
95672,1973.628636168279
95673,2059.4011155237745
95674,2123.050456156761
95675,2159.8290314916676
95676,2178.5484311544474
95677,2191.94238136821
95678,2206.0122031092924
95679,2217.819445838811
95680,2222.799267389971
95681,2223.2843684181635
95682,2228.7703417310045
95683,2246.7580500708127
95684,2272.718161550503
95685,2289.317469254997
95686,2276.852905389849
95687,2226.652943104548
95688,2146.6630399399746
95689,2055.6767565955843
95690,1972.4857815238167
95691,1909.3007996016304
95692,1872.8664092985657
95693,1868.4098666904474
95694,1899.496200022872
95695,1962.779242589354
95696,2043.8756012914594
95697,2121.070879430268
95698,2176.268842601776
95699,2204.7821087202346
95700,2215.47879960012
95701,2221.1450023820735
95702,2227.8298217888846
95703,2232.637664740753
95704,2231.041330922261
95705,2225.4057200089082
95706,2225.2530173695022
95707,2238.104972598506
95708,2259.4474000836335
95709,2271.9565273335384
95710,2255.9330999508993
95711,2202.7039341580603
95712,2120.2075678977217
95713,2027.225640626983
95714,1942.5332282614745
95715,1878.320066667979
95716,1841.305863114402
95717,1836.6894684131878
95718,1868.0044475286488
95719,1931.8705903248315
95720,2013.8683734568617
95721,2092.245685560459
95722,2148.8674981440913
95723,2179.0070569401128
95724,2191.4930247846723
95725,2199.072418464704
95726,2207.7561147604165
95727,2214.6115619056573
95728,2215.0762651920286
95729,2211.481853014684
95730,2213.319581351161
95731,2228.082887760809
95732,2251.2321214717326
95733,2265.4210733187174
95734,2250.931213103125
95735,2199.073324654531
95736,2117.773189691983
95737,2025.8029513389654
95738,1941.9313851504642
95739,1878.3450130940014
95740,1841.7632625382823
95741,1837.3874461916184
95742,1868.756104489379
95743,1932.4962562870612
95744,2014.1975734537202
95745,2092.11879643725
95746,2148.137078425485
95747,2177.53883814828
95748,2189.1665580445524
95749,2195.781375626239
95750,2203.408248859289
95751,2209.1283371595605
95752,2208.3921719339965
95753,2203.5434279348283
95754,2204.084158032854
95755,2217.5171067380365
95756,2239.3102328564964
95757,2252.123068291295
95758,2236.240823350248
95759,2182.9759310014965
95760,2100.2536826810765
95761,2006.8435875295538
95762,1921.5096830361183
95763,1856.4317322706006
95764,1818.32050870678
95765,1812.3669428117335
95766,1842.097669734692
95767,1904.1265210053377
95768,1984.0289724382367
95769,2060.04886138469
95770,2114.048056578984
95771,2141.297655861271
95772,2150.6251433914053
95773,2154.7773488297366
95774,2159.7659837572023
95775,2162.6603912636565
95776,2158.9010769343863
95777,2150.8238268366617
95778,2147.9252695709774
95779,2157.705492366488
95780,2175.632836504593
95781,2184.370494369641
95782,2164.21081411534
95783,2106.4770005249743
95784,2019.1088613595448
95785,1920.8942281954176
95786,1830.6192777280176
95787,1760.4896870809835
95788,1717.2458233184802
95789,1706.1117413048114
95790,1730.650529690425
95791,1787.5155492712427
95792,1862.3245779285655
95793,1933.3661778623903
95794,1982.5489717268233
95795,2005.192406895034
95796,2010.1734438865885
95797,2010.289016501443
95798,2011.6010444210078
95799,2011.2286400493479
95800,2004.66108405679
95801,1994.2813816943888
95802,1989.631263569549
95803,1998.2532476092467
95804,2015.6548942525762
95805,2024.5348838355696
